Kelvin,p,density,v_liquid,v_gas,compressibility factor,h_liquid,h_gas,r,s_liquid,s_gas
300.15,0.03564,0.02576,0.0010034,38.81,1,113.13,2550.9,2437.8,0.3949,8.5168
301.15,0.03778,0.02723,0.0010037,36.73,1,117.31,2552.7,2435.4,0.4088,8.4959
302.15,0.04004,0.02876,0.001004,34.77,1,121.48,2554.5,2433.1,0.4227,8.4751
303.15,0.04241,0.03037,0.0010043,32.93,1,125.66,2556.4,2430.7,0.4365,8.4546
304.15,0.04491,0.03205,0.0010046,31.2,1,129.84,2558.2,2428.3,0.4503,8.4342
305.15,0.04753,0.03382,0.0010049,29.57,1,134.02,2560,2425.9,0.464,8.414
306.15,0.05029,0.03566,0.0010053,28.04,1,138.2,2561.8,2423.6,0.4777,8.3939
307.15,0.05318,0.03759,0.0010056,26.6,1,142.38,2563.6,2421.2,0.4913,8.374
308.15,0.05622,0.03961,0.001006,25.24,1,146.56,2565.4,2418.8,0.5049,8.3543
309.15,0.0594,0.04172,0.0010063,23.97,1,150.74,2567.2,2416.4,0.5184,8.3348
310.15,0.06274,0.04393,0.0010067,22.76,1,154.91,2569,2414.1,0.5319,8.3154
311.15,0.06624,0.04624,0.001007,21.63,1,159.09,2570.8,2411.7,0.5453,8.2962
312.15,0.06991,0.04865,0.0010074,20.56,1,163.27,2572.6,2409.3,0.5588,8.2772
313.15,0.07375,0.05116,0.0010078,19.55,1,167.45,2574.4,2406.9,0.5721,8.2583
314.15,0.07777,0.05379,0.0010082,18.59,1,171.63,2576.2,2404.5,0.5854,8.2395
315.15,0.08198,0.05652,0.0010086,17.69,1,175.81,2577.9,2402.1,0.5987,8.2209
316.15,0.08639,0.05938,0.001009,16.84,1,179.99,2579.7,2399.7,0.612,8.2025
317.15,0.091,0.06236,0.0010094,16.04,1,184.17,2581.5,2397.3,0.6252,8.1842
318.15,0.09582,0.06546,0.0010099,15.28,1,188.35,2583.3,2394.9,0.6383,8.1661
319.15,0.10086,0.06869,0.0010103,14.56,1,192.53,2585.1,2392.5,0.6514,8.1481
320.15,0.10612,0.07206,0.0010107,13.88,1,196.71,2586.9,2390.1,0.6645,8.1302
321.15,0.11162,0.07557,0.0010112,13.23,1,200.89,2588.6,2387.7,0.6776,8.1125
322.15,0.11736,0.07922,0.0010117,12.62,1,205.07,2590.4,2385.3,0.6906,8.095
323.15,0.12335,0.08302,0.0010121,12.05,1,209.26,2592.2,2382.9,0.7035,8.0776
324.15,0.12961,0.08697,0.0010126,11.5,1,213.44,2593.9,2380.5,0.7164,8.0603
325.15,0.13613,0.09108,0.0010131,10.98,1,217.62,2595.7,2378.1,0.7293,8.0432
326.15,0.14293,0.09535,0.0010136,10.49,1,221.8,2597.5,2375.7,0.7422,8.0262
327.15,0.15002,0.09979,0.001014,10.02,1,225.98,2599.2,2373.2,0.755,8.0093
328.15,0.15741,0.1044,0.0010145,9.579,1,230.17,2601,2370.8,0.7677,7.9926
329.15,0.16511,0.1092,0.001015,9.159,1,234.35,2602.7,2368.4,0.7804,7.9759
330.15,0.17313,0.1142,0.0010156,8.76,1,238.53,2604.5,2365.9,0.7931,7.9595
331.15,0.18147,0.1193,0.0010161,8.381,1,242.72,2606.2,2363.5,0.8058,7.9431
332.15,0.19016,0.1247,0.0010166,8.021,1,246.91,2608,2361.1,0.8184,7.9269
333.15,0.1992,0.1302,0.0010171,7.679,1,251.09,2609.7,2358.6,0.831,7.9108
334.15,0.2086,0.136,0.0010177,7.353,1,255.28,2611.4,2356.2,0.8435,7.8948
335.15,0.2184,0.142,0.0010182,7.044,1,259.46,2613.2,2353.7,0.856,7.879
336.15,0.2286,0.1482,0.0010188,6.749,1,263.65,2614.9,2351.3,0.8685,7.8633
337.15,0.2391,0.1546,0.0010193,6.469,1,267.84,2616.6,2348.8,0.8809,7.8477
338.15,0.2501,0.1612,0.0010199,6.202,1,272.02,2618.4,2346.3,0.8933,7.8322
339.15,0.2615,0.1681,0.0010205,5.948,1,276.21,2620.1,2343.9,0.9057,7.8168
340.15,0.2733,0.1752,0.0010211,5.706,1,280.4,2621.8,2341.4,0.918,7.8015
341.15,0.2856,0.1826,0.0010217,5.476,1,284.59,2623.5,2338.9,0.9303,7.7864
342.15,0.2984,0.1903,0.0010223,5.256,1,288.78,2625.2,2336.4,0.9426,7.7714
343.15,0.3116,0.1982,0.0010228,5.046,1,292.97,2626.9,2334,0.9548,7.7565
344.15,0.3253,0.2063,0.0010235,4.846,1,297.16,2628.6,2331.5,0.967,7.7417
345.15,0.3396,0.2148,0.0010241,4.656,1,301.35,2630.3,2329,0.9792,7.727
346.15,0.3543,0.2235,0.0010247,4.474,1,305.55,2632,2326.5,0.9913,7.7124
347.15,0.3696,0.2326,0.0010253,4.3,1,309.74,2633.7,2324,1.0034,7.6979
348.15,0.3855,0.2419,0.0010259,4.134,1,313.94,2635.4,2321.5,1.0154,7.6835
349.15,0.4019,0.2515,0.0010266,3.976,1,318.13,2637.1,2318.9,1.0275,7.6693
350.15,0.4189,0.2615,0.0010272,3.824,1,322.33,2638.7,2316.4,1.0395,7.6551
351.15,0.4365,0.2718,0.0010279,3.68,1,326.52,2640.4,2313.9,1.0514,7.641
352.15,0.4547,0.2824,0.0010285,3.541,1,330.72,2642.1,2311.4,1.0634,7.6271
353.15,0.4736,0.2933,0.0010292,3.409,1,334.92,2643.8,2308.8,1.0753,7.6132
354.15,0.4931,0.3046,0.0010299,3.283,1,339.11,2645.4,2306.3,1.0871,7.5995
355.15,0.5133,0.3163,0.0010305,3.162,1,343.31,2647.1,2303.8,1.099,7.5858
356.15,0.5342,0.3283,0.0010312,3.046,1,347.51,2648.7,2301.2,1.1108,7.5722
357.15,0.5557,0.3407,0.0010319,2.935,1,351.71,2650.4,2298.7,1.1225,7.5588
358.15,0.578,0.3535,0.0010326,2.829,1,355.92,2652,2296.5,1.1343,7.5454
359.15,0.6011,0.3667,0.0010333,2.727,1,360.12,2653.6,2293.1,1.146,7.5321
360.15,0.6249,0.3803,0.001034,2.63,1,364.32,2655.3,2290.9,1.1577,7.5189
361.15,0.6495,0.3942,0.0010347,2.536,1,368.53,2656.9,2288.4,1.1693,7.5058
362.15,0.6749,0.4087,0.0010354,2.447,1,372.73,2658.5,2285.8,1.1809,7.4928
363.15,0.7011,0.4235,0.0010361,2.361,1,376.94,2660.1,2283.2,1.1925,7.4799
364.15,0.7281,0.4388,0.0010369,2.279,1,381.15,2661.7,2280.6,1.2041,7.467
365.15,0.7561,0.4545,0.0010376,2.2,1,385.36,2663.4,2278,1.2156,7.4543
366.15,0.7849,0.4797,0.0010384,2.125,1,389.56,2665,2275.4,1.2271,7.4416
367.15,0.8146,0.4873,0.0010391,2.052,1,393.78,2666.6,2272.8,1.2386,7.4291
368.15,0.8453,0.5045,0.0010399,1.982,1,397.99,2668.1,2270.2,1.2501,7.4166
369.15,0.8769,0.5221,0.0010406,1.915,1,402.2,2669.7,2267.5,1.2615,7.4042
370.15,0.9094,0.5402,0.0010414,1.851,1,406.42,2671.3,2264.9,1.2729,7.3919
371.15,0.943,0.5589,0.0010421,1.789,1,410.63,2672.9,2262.2,1.2842,7.3796
372.15,0.9776,0.578,0.0010429,1.73,1,414.85,2674.4,2259.6,1.2956,7.3675
373.15,1.0133,0.5977,0.0010437,1.673,1,419.06,2676,2256.9,1.3069,7.3554
374.15,1.05,0.618,0.0010445,1.618,1,423.28,2677.6,2254.3,1.3182,7.3434
375.15,1.0878,0.6388,0.0010453,1.566,1,427.5,2679.1,2251.6,1.3294,7.3315
376.15,1.1267,0.6601,0.0010461,1.515,1,431.73,2680.7,2248.9,1.3406,7.3196
377.15,1.1668,0.6821,0.0010469,1.466,1,435.95,2682.2,2246.3,1.3518,7.3078
378.15,1.208,0.7046,0.0010477,1.419,1,440.17,2683.7,2243.6,1.363,7.2962
379.15,1.2504,0.7277,0.0010485,1.374,1,444.4,2685.3,2240.9,1.3742,7.2845
380.15,1.2941,0.7515,0.0010494,1.331,1,448.63,2686.8,2238.2,1.3853,7.273
381.15,1.339,0.7758,0.0010502,1.289,1,452.85,2688.3,2235.4,1.3964,7.2615
382.15,1.3852,0.8008,0.001051,1.249,1,457.08,2689.8,2232.7,1.4074,7.2501
383.15,1.4327,0.8265,0.0010519,1.21,1,461.32,2691.3,2230,1.4185,7.2388
384.15,1.4815,0.8528,0.0010527,1.173,1,465.55,2692.8,2227.3,1.4295,7.2275
385.15,1.5316,0.8798,0.0010536,1.137,1,469.78,2694.3,2224.5,1.4405,7.2164
386.15,1.5832,0.9075,0.0010544,1.102,1,474.02,2695.8,2221.8,1.4515,7.2052
387.15,1.6362,0.9359,0.0010553,1.069,1,478.26,2697.2,2219,1.4624,7.1942
388.15,1.6906,0.965,0.0010562,1.036,1,482.5,2698.7,2216.2,1.4733,7.1832
389.15,1.7465,0.9948,0.0010571,1.005,1,486.74,2700.2,2213.4,1.4842,7.1723
390.15,1.8039,1.025,0.0010579,0.9753,1,490.98,2701.6,2210.7,1.4951,7.1614
391.15,1.8628,1.057,0.0010588,0.9463,1,495.23,2703.1,2207.9,1.506,7.1507
392.15,1.9233,1.089,0.0010597,0.9184,1,499.47,2704.5,2205.1,1.5168,7.1399
393.15,1.9854,1.122,0.0010606,0.8915,1,503.72,2706,2202.2,1.5276,7.1293
394.15,2.0492,1.155,0.0010615,0.8655,1,507.97,2707.4,2199.4,1.5384,7.1187
395.15,2.1145,1.19,0.0010625,0.8405,1,512.22,2708.8,2196.6,1.5491,7.1082
396.15,2.1816,1.225,0.0010634,0.8162,1,516.47,2710.2,2193.7,1.5599,7.0977
397.15,2.2504,1.261,0.0010643,0.7928,1,520.73,2711.6,2190.9,1.5706,7.0873
398.15,2.321,1.298,0.0010652,0.7702,1,524.99,2713,2188,1.5813,7.0769
399.15,2.3933,1.336,0.0010662,0.7484,1,529.25,2714.4,2185.2,1.5919,7.0666
400.15,2.4675,1.375,0.0010671,0.7273,1,533.51,2715.8,2182.3,1.6026,7.0564
401.15,2.5435,1.415,0.0010681,0.7069,1,537.77,2717.2,2179.4,1.6132,7.0462
402.15,2.6215,1.455,0.0010691,0.6872,1,542.04,2718.5,2176.5,1.6238,7.0361
403.15,2.7013,1.497,0.00107,0.6681,1,546.31,2719.9,2173.6,1.6344,7.0261
404.15,2.7831,1.539,0.001071,0.6497,1,550.58,2721.3,2170.7,1.6449,7.0161
405.15,2.867,1.583,0.001072,0.6319,1,554.85,2722.6,2167.8,1.6555,7.0061
406.15,2.9528,1.627,0.001073,0.6146,1,559.12,2723.9,2164.8,1.666,6.9962
407.15,3.041,1.672,0.001074,0.598,1,563.4,2725.3,2161.9,1.6765,6.9864
408.15,3.131,1.719,0.001075,0.5818,1,567.68,2726.6,2158.9,1.6869,6.9766
409.15,3.223,1.766,0.001076,0.5662,1,571.96,2727.9,2155.9,1.6974,6.9669
410.15,3.317,1.815,0.001077,0.5511,1,576.24,2729.2,2153,1.7078,6.9572
411.15,3.414,1.864,0.001078,0.5364,1,580.53,2730.5,2150,1.7182,6.9475
412.15,3.513,1.915,0.001079,0.5222,1,584.81,2731.8,2147,1.7286,6.938
413.15,3.614,1.967,0.0010801,0.5085,1,589.1,2733.1,2144,1.739,6.9284
414.15,3.717,2.019,0.0010811,0.4952,1,593.4,2734.3,2140.9,1.7493,6.919
415.15,3.823,2.073,0.0010821,0.4823,1,597.69,2735.6,2137.9,1.7597,6.9095
416.15,3.931,2.129,0.0010832,0.4698,1,601.99,2736.9,2134.9,1.77,6.9001
417.15,4.042,2.185,0.0010843,0.4577,1,606.29,2738.1,2131.8,1.7803,6.8908
418.15,4.155,2.242,0.0010853,0.446,1,610.6,2739.3,2128.7,1.7906,6.8815
419.15,4.271,2.301,0.0010864,0.4346,1,614.9,2740.6,2125.7,1.8008,6.8723
420.15,4.389,2.361,0.0010875,0.4236,1,619.21,2741.8,2122.6,1.811,6.8631
421.15,4.51,2.422,0.0010886,0.4129,1,623.52,2743,2119.5,1.8213,6.8539
422.15,4.634,2.484,0.0010897,0.4025,1,627.83,2744.2,2116.3,1.8315,6.8448
423.15,4.76,2.548,0.0010908,0.3924,1,632.15,2745.4,2113.2,1.8416,6.8358
424.15,4.889,2.613,0.0010919,0.3827,1,636.47,2746.5,2110.1,1.8518,6.8268
425.15,5.021,2.679,0.001093,0.3732,1,640.79,2747.7,2106.9,1.862,6.8178
426.15,5.155,2.747,0.0010941,0.364,1,645.12,2748.9,2103.8,1.8721,6.8089
427.15,5.293,2.816,0.0010953,0.3551,1,649.45,2750,2100.6,1.8822,6.8
428.15,5.433,2.886,0.0010964,0.3464,1,653.78,2751.2,2097.4,1.8923,6.7911
429.15,5.577,2.958,0.0010976,0.338,1,658.11,2752.3,2094.2,1.9023,6.7823
430.15,5.723,3.032,0.0010987,0.3299,1,662.45,2753.4,2091,1.9124,6.7735
431.15,5.872,3.106,0.0010999,0.3219,1,666.79,2754.5,2087.7,1.9224,6.7648
432.15,6.025,3.182,0.0011011,0.3142,1,671.13,2755.6,2084.5,1.9325,6.7561
433.15,6.181,3.26,0.0011022,0.3068,1,675.47,2756.7,2081.3,1.9425,6.7475
434.15,6.339,3.339,0.0011034,0.2995,1,679.82,2757.8,2078,1.9525,6.7389
435.15,6.502,3.42,0.0011046,0.2924,1,684.18,2758.9,2074.7,1.9624,6.7303
436.15,6.667,3.502,0.0011058,0.2856,1,688.53,2759.9,2071.4,1.9724,6.7218
437.15,6.836,3.586,0.001107,0.2789,1,692.89,2761,2068.1,1.9823,6.7133
438.15,7.008,3.671,0.0011082,0.2724,1,697.25,2762,2064.8,1.9923,6.7048
439.15,7.183,3.758,0.0011095,0.2661,1,701.62,2763.1,2061.4,2.0022,6.6964
440.15,7.362,3.847,0.0011107,0.26,1,705.99,2764.1,2058.1,2.0121,6.688
441.15,7.545,3.937,0.0011119,0.254,1,710.36,2765.1,2054.7,2.0219,6.6796
442.15,7.731,4.029,0.0011132,0.2482,1,714.74,2766.1,2051.3,2.0318,6.6713
443.15,7.92,4.123,0.0011145,0.2426,1,719.12,2767.1,2047.9,2.0416,6.663
444.15,8.114,4.218,0.0011157,0.2371,1,723.5,2768,2044.5,2.0515,6.6548
445.15,8.311,4.316,0.001117,0.2317,1,727.89,2769,2041.1,2.0613,6.6465
446.15,8.511,4.415,0.0011183,0.2265,1,732.28,2769.9,2037.7,2.0711,6.6384
447.15,8.716,4.515,0.0011196,0.2215,1,736.67,2770.9,2034.2,2.0809,6.6302
448.15,8.924,4.618,0.0011209,0.2165,1,741.07,2771.8,2030.7,2.0906,6.6221
449.15,9.137,4.723,0.0011222,0.2117,1,745.47,2772.7,2027.3,2.1004,6.614
450.15,9.353,4.829,0.0011235,0.2071,1,749.88,2773.6,2023.8,2.1102,6.6059
451.15,9.574,4.937,0.0011248,0.2025,1,754.28,2774.5,2020.2,2.1199,6.5979
452.15,9.798,5.048,0.0011262,0.1981,1,758.7,2775.4,2016.7,2.1296,6.5899
453.15,10.027,5.16,0.0011275,0.1938,1,763.12,2776.3,2013.1,2.1393,6.5819
454.15,10.259,5.274,0.0011289,0.1896,1,767.54,2777.1,2009.6,2.149,6.5739
455.15,10.496,5.391,0.0011302,0.1855,1,771.96,2778,2006,2.1587,6.566
456.15,10.738,5.509,0.0011316,0.1815,1,776.39,2778.8,2002.4,2.1683,6.5581
457.15,10.983,5.629,0.001133,0.1776,1,780.82,2779.6,1998.8,2.178,6.5503
458.15,11.233,5.752,0.0011344,0.1739,1,785.26,2780.4,1995.2,2.1876,6.5424
459.15,11.488,5.877,0.0011358,0.1702,1,789.7,2781.2,1991.5,2.1972,6.5346
460.15,11.747,6.003,0.0011372,0.1666,1,794.15,2782,1987.8,2.2068,6.5268
461.15,12.01,6.132,0.0011386,0.1631,1,798.6,2782.8,1984.2,2.2164,6.5191
462.15,12.278,6.264,0.0011401,0.1596,1,803.06,2783.5,1980.5,2.226,6.5113
463.15,12.551,6.397,0.0011415,0.1563,1,807.52,2784.3,1976.7,2.2356,6.5036
464.15,12.829,6.533,0.001143,0.1531,1,811.98,2785,1973,2.2451,6.4959
465.15,13.111,6.671,0.0011444,0.1499,1,816.45,2785.7,1969.3,2.2547,6.4883
466.15,13.398,6.812,0.0011459,0.1468,1,820.92,2786.4,1965.5,2.2642,6.4806
467.15,13.69,6.955,0.0011474,0.1438,1,825.4,2787.1,1961.7,2.2738,6.473
468.15,13.987,7.1,0.0011489,0.1408,1,829.88,2787.8,1957.9,2.2833,6.4654
469.15,14.289,7.248,0.0011504,0.138,1,834.37,2788.4,1954.1,2.2928,6.4578
470.15,14.596,7.398,0.0011519,0.1352,1,838.86,2789.1,1950.2,2.3023,6.4503
471.15,14.909,7.551,0.0011534,0.1324,1,843.36,2789.7,1946.4,2.3117,6.4428
472.15,15.226,7.796,0.0011549,0.1298,1,847.86,2790.3,1942.5,2.3212,6.4353
473.15,15.549,7.864,0.0011565,0.1272,1,852.37,2790.9,1938.6,2.3307,6.4278
474.15,15.877,8.025,0.0011581,0.1246,1,856.88,2791.5,1934.6,2.3401,6.4203
475.15,16.21,8.188,0.0011596,0.1221,1,861.4,2792.1,1930.7,2.3496,6.4128
476.15,16.549,8.354,0.0011612,0.1197,1,865.92,2792.7,1926.7,2.359,6.4054
477.15,16.893,8.522,0.0011628,0.1173,1,870.45,2793.2,1922.8,2.3684,6.398
478.15,17.243,8.694,0.0011644,0.115,1,874.99,2793.8,1918.8,2.3778,6.3906
479.15,17.598,8.868,0.001166,0.1128,1,879.53,2794.3,1914.7,2.3872,6.3832
480.15,17.959,9.045,0.0011676,0.1106,1,884.07,2794.8,1910.7,2.3966,6.3759
481.15,18.326,9.225,0.0011693,0.1084,1,888.62,2795.3,1906.6,2.406,6.3686
482.15,18.699,9.408,0.0011709,0.1063,1,893.17,2795.7,1902.6,2.4153,6.3612
483.15,19.077,9.593,0.0011726,0.1042,1,897.74,2796.2,1898.5,2.4247,6.3539
484.15,19.462,9.782,0.0011743,0.1022,1,902.31,2796.6,1894.3,2.434,6.3466
485.15,19.852,9.974,0.001176,0.1003,1,906.87,2797.1,1890.2,2.4434,6.3394
486.15,20.249,10.17,0.0011777,0.09834,1,911.45,2797.5,1886,2.4527,6.3321
487.15,20.651,10.37,0.0011794,0.09646,1,916.03,2797.9,1881.8,2.462,6.3249
488.15,21.06,10.57,0.0011811,0.09463,1,920.63,2798.3,1877.6,2.4713,6.3176
489.15,21.475,10.77,0.0011829,0.09283,1,925.23,2798.6,1873.4,2.4806,6.3104
490.15,21.896,10.98,0.0011846,0.09107,1,929.83,2799,1869.1,2.49,6.3032
491.15,22.324,11.19,0.0011864,0.08936,1,934.44,2799.3,1864.9,2.4992,6.2961
492.15,22.758,11.41,0.0011882,0.08768,1,939.06,2799.6,1860.6,2.5085,6.2889
493.15,23.198,11.62,0.00119,0.08604,1,943.67,2799.9,1856.2,2.5178,6.2817
494.15,23.645,11.84,0.0011918,0.08443,1,948.3,2800.2,1851.9,2.5271,6.2746
495.15,24.099,12.07,0.0011936,0.08286,1,952.93,2800.5,1847.5,2.5363,6.2674
496.15,24.56,12.3,0.0011954,0.08132,1,957.58,2800.7,1843.1,2.5456,6.2603
497.15,25.027,12.53,0.0011973,0.07982,1,962.22,2800.9,1838.7,2.5548,6.2532
498.15,25.501,12.76,0.0011992,0.07835,1,966.89,2801.2,1834.3,2.5641,6.2461
499.15,25.982,13,0.001201,0.07691,1,971.55,2801.4,1829.8,2.5733,6.239
500.15,26.47,13.24,0.0012029,0.0755,1,976.21,2801.5,1825.3,2.5825,6.2319
